0.022905353705088297, 22.86, 25.38
0.039636409282684325, 22.94, 25.38
0.05635283390680949, 23.04, 25.38
0.07307850122451783, 23.04, 25.38
0.08980203072230021, 23.04, 25.38
0.10652848879496256, 23.14, 25.38
0.12325110832850138, 23.04, 25.38
0.1399774432182312, 23.1, 25.38
0.15670125087102255, 23.1, 25.42
0.1734245737393697, 23.04, 25.42
0.19014919598897298, 23.04, 25.42
0.2068742036819458, 23.0, 25.42
0.22359949747721355, 23.0, 25.42
0.24032421112060548, 22.94, 25.42
0.25704678694407146, 22.94, 25.42
0.27377369403839114, 23.0, 25.42
0.290494962533315, 23.0, 25.38
0.3072216550509135, 23.0, 25.42
0.32394402821858725, 23.0, 25.38
0.34067105054855346, 23.0, 25.42
0.35739516019821166, 22.94, 25.38
0.37411789894104003, 23.1, 25.42
0.3908440589904785, 23.1, 25.42
0.40756818453470867, 23.48, 25.42
0.4242289940516154, 23.62, 25.42
0.44095311959584554, 23.88, 25.42
0.4576753815015157, 29.42, 25.42
0.47440165281295776, 33.92, 25.42
0.49112708568573, 34.94, 25.42
0.5078499754269917, 38.06, 25.42
0.5245762228965759, 43.82, 25.48
0.5412992596626282, 53.74, 25.48
0.5580245137214661, 47.5, 25.48
0.5747474114100138, 51.08, 25.52
0.5914729436238607, 49.3, 25.52
0.6081967751185099, 50.48, 25.52
0.6249206066131592, 51.42, 25.56
0.641645634174347, 62.58, 25.6
0.6583694100379944, 71.34, 25.6
0.6750924428304036, 71.0, 25.64
0.6918177803357443, 70.8, 25.68
0.7085427482922871, 70.78, 25.74
0.7252674659093221, 70.8, 25.82
0.7419930378595988, 70.62, 25.86
0.758717167377472, 70.36, 25.86
0.7754425446192423, 70.18, 25.96
0.7921679496765137, 70.16, 25.96
0.8088902552922567, 69.9, 26.04
0.8256144205729167, 69.9, 26.08
0.8423403024673461, 69.6, 26.16
0.8590612729390462, 69.42, 26.22
0.8757884263992309, 69.68, 26.3
0.8925127108891805, 69.3, 26.34
0.9092366973559062, 69.02, 26.38
0.9259629249572754, 69.2, 26.44
0.9426862001419067, 68.9, 26.52
0.9593443791071574, 68.74, 26.56
0.9760723749796549, 68.84, 26.6
0.9927968422571818, 68.86, 26.64
1.009520204861959, 68.74, 26.74
1.0262455463409423, 68.36, 26.78
1.0429678837458292, 68.4, 26.82
1.0596919894218444, 68.48, 26.92
1.0764174779256186, 68.42, 26.96
1.093141210079193, 68.2, 27.04
1.1098666628201803, 68.0, 27.08
1.1265912413597108, 67.74, 27.12
1.1433139443397522, 67.72, 27.18
1.1600394328435262, 67.78, 27.26
1.1767626921335856, 67.64, 27.3
1.1934894680976869, 67.4, 27.34
1.2102103630701702, 67.26, 27.44
1.2269341111183167, 67.1, 27.48
1.243659500281016, 66.94, 27.52
1.2603827118873596, 66.76, 27.56
1.277108645439148, 66.68, 27.62
1.2938305497169496, 66.6, 27.66
1.3105584661165872, 66.6, 27.7
1.3272816777229308, 66.6, 27.74
1.3440089702606202, 66.34, 27.82
1.3607308983802795, 66.28, 27.82
1.3774575312932333, 66.24, 27.92
1.3941794673601786, 65.86, 27.96
1.4109065771102904, 65.8, 27.96
1.427627650896708, 65.92, 28.0
1.444352110226949, 65.82, 28.04
1.4610787153244018, 65.66, 28.14
1.477803365389506, 65.5, 28.18
1.494532012939453, 65.34, 28.22
1.511254890759786, 65.2, 28.26
1.527914249897003, 65.2, 28.3
1.5446386337280273, 65.18, 28.36
1.5613620718320211, 64.94, 28.4
1.5780869841575622, 64.84, 28.4
1.5948124806086221, 64.64, 28.48
1.611535374323527, 64.54, 28.48
1.6282601356506348, 64.44, 28.52
1.6449853459993997, 64.34, 28.58
1.661709694067637, 64.16, 28.62
1.6784321347872415, 64.08, 28.62
1.6951568802197774, 63.98, 28.66
1.7118810097376504, 64.16, 28.74
1.728607682387034, 63.92, 28.74
1.7453300595283507, 63.86, 28.78
1.762056259314219, 63.56, 28.84
1.7787779768308003, 63.44, 28.88
1.7955027977625528, 63.08, 28.88
1.8122284531593322, 63.24, 28.92
1.8289544185002644, 62.42, 28.92
1.8456801374753316, 62.46, 28.92
1.8624033252398173, 61.98, 28.92
1.879128344853719, 62.76, 28.92
1.8958542346954346, 62.94, 29.0
1.9125783642133076, 62.42, 29.0
1.9293018579483032, 62.12, 29.06
1.9460249861081442, 62.22, 29.1
1.9627503514289857, 62.04, 29.1
1.97947545448939, 62.12, 29.14
1.9962015549341838, 62.36, 29.18
2.0129246791203816, 62.18, 29.22
2.029647394021352, 62.12, 29.32
2.046373200416565, 61.94, 29.32
2.063095764319102, 61.54, 29.32
2.0797556122144063, 61.54, 29.36
2.0964824755986533, 60.96, 29.36
2.1132055441538493, 61.58, 29.36
2.129931628704071, 61.78, 29.4
2.1466556827227277, 61.68, 29.48
2.1633809049924215, 61.24, 29.54
2.180104883511861, 60.9, 29.54
2.1968300342559814, 60.92, 29.54
2.213552741209666, 61.06, 29.58
2.230280578136444, 60.96, 29.62
2.247001262505849, 60.86, 29.66
2.2637261072794597, 60.78, 29.66
2.2804497202237446, 60.66, 29.66
2.297175137201945, 60.56, 29.7
2.3138992110888164, 60.48, 29.7
2.330620010693868, 60.34, 29.74
2.3473508834838865, 60.32, 29.8
2.364074202378591, 60.24, 29.84
2.380797803401947, 60.24, 29.84
2.397522290547689, 59.98, 29.88
2.4142465790112815, 59.9, 29.88
2.430972862243652, 59.8, 29.92
2.447693769137065, 59.64, 29.92
2.4644198020299277, 59.62, 29.92
2.4811466097831727, 59.28, 29.96
2.4978718996047973, 59.08, 30.02
2.514593974749247, 58.26, 29.96
2.5313175320625305, 58.26, 29.92
2.548042953014374, 58.52, 29.92
2.5647660295168557, 58.9, 29.92
2.5814923008282977, 58.52, 29.96
2.598217523097992, 58.5, 29.96
2.614942264556885, 58.56, 29.96
2.631664792696635, 58.46, 30.02
2.6483248472213745, 58.46, 30.02
2.6650498032569887, 58.32, 30.06
2.681773368517558, 58.26, 30.06
2.6984993616739907, 58.28, 30.06
2.715223487218221, 58.28, 30.1
2.7319459835688273, 58.26, 30.14
2.748672807216644, 58.16, 30.14
2.7653969407081602, 57.98, 30.18
2.782121213277181, 58.08, 30.18
2.7988460540771483, 58.04, 30.24
2.8155701120694476, 57.8, 30.24
2.8322950124740602, 57.98, 30.28
2.849017878373464, 57.88, 30.28
2.865744078159332, 57.54, 30.28
2.882468835512797, 57.26, 30.32
2.8991913119951884, 57.12, 30.32
2.9159180919329324, 57.12, 30.32
2.9326417962710063, 56.98, 30.32
2.949365997314453, 56.86, 30.32
2.9660908460617064, 56.66, 30.32
2.9828159769376117, 57.04, 30.32
2.9995406746864317, 56.9, 30.36
3.016265789667765, 56.5, 30.36
3.0329897006352744, 56.34, 30.36
3.0497134844462077, 56.26, 30.36
3.0664369225502015, 56.08, 30.36
3.0831629554430644, 56.08, 30.36
3.099886445204417, 56.08, 30.36
3.1166112740834553, 55.8, 30.36
3.1333346247673033, 55.66, 30.36
3.1500603119532267, 55.9, 30.36
3.1667835156122845, 55.86, 30.36
3.1835080862045286, 55.8, 30.4
3.2002342065175373, 55.66, 30.36
3.216892433166504, 55.48, 30.4
3.233617428938548, 55.66, 30.4
3.250341832637787, 55.58, 30.4
3.2670674165089926, 55.48, 30.44
3.2837910811106363, 55.54, 30.4
3.300515961647034, 55.08, 30.44
3.3172406514485675, 54.9, 30.44
3.3339651465415954, 54.86, 30.44
3.350688954194387, 55.04, 30.44
3.3674137075742085, 54.94, 30.44
3.384137237071991, 54.76, 30.44
3.4008634726206464, 54.84, 30.44
3.417587415377299, 54.76, 30.44
3.434311612447103, 54.68, 30.44
3.451036600271861, 54.62, 30.44
3.4677610993385315, 54.58, 30.5
3.484484310944875, 54.46, 30.5
3.501209195454915, 54.38, 30.5
3.5179339051246643, 54.36, 30.5
3.5346579829851787, 54.32, 30.5
3.551383455594381, 54.42, 30.5
3.5681055506070454, 54.14, 30.54
3.5848321477572123, 53.88, 30.54
3.601556106408437, 53.36, 30.5
3.6182817220687866, 53.1, 30.5
3.635004285971324, 53.74, 30.44
3.6517301122347514, 53.64, 30.5
3.668453311920166, 53.7, 30.5
3.685178275903066, 53.6, 30.5
3.7019014080365498, 53.54, 30.5
3.7186275402704876, 53.5, 30.54
3.7353509028752643, 53.36, 30.5
3.7520743290583294, 53.38, 30.54
3.768734852472941, 53.28, 30.54
3.7854604919751487, 53.1, 30.54
3.80218585729599, 53.1, 30.5
3.818907554944356, 53.1, 30.54
3.835633027553558, 53.2, 30.54
3.8523576736450194, 53.24, 30.54
3.869082037607829, 53.32, 30.58
3.8858059525489805, 53.06, 30.58
3.9025305549303693, 52.82, 30.62
3.9192569176356, 52.7, 30.62
3.935980725288391, 52.56, 30.58
3.9527044733365377, 52.5, 30.62
3.9694298187891643, 52.42, 30.58
3.9861547549565635, 52.42, 30.58
4.002877525488535, 52.36, 30.58
4.019604484240214, 52.36, 30.62
4.036327258745829, 52.18, 30.62
4.053052540620168, 52.1, 30.58
4.069775485992432, 52.06, 30.62
4.086501602331797, 51.98, 30.62
4.103224964936574, 51.9, 30.58
4.119951017697653, 51.86, 30.62
4.1366753856341045, 51.86, 30.62
4.153399956226349, 51.74, 30.58
4.170124324162801, 51.6, 30.58
4.186847261587778, 51.52, 30.58
4.203572424252828, 51.44, 30.58
4.220296883583069, 50.88, 30.58
4.237021970748901, 51.48, 30.58
4.2537454724311825, 51.26, 30.58
4.270469601949056, 51.14, 30.58
4.287194947401683, 51.04, 30.58
4.303920145829519, 51.04, 30.58
4.320578757921854, 50.96, 30.58
4.337302807966868, 50.82, 30.58
4.354027764002482, 50.96, 30.58
4.370752839247386, 50.56, 30.58
4.387476090590159, 50.52, 30.54
4.404201996326447, 50.4, 30.54
4.420926237106324, 50.1, 30.54
4.437650938828786, 50.26, 30.54
4.454375020662943, 50.58, 30.54
4.471100076039632, 50.52, 30.54
4.4878243128458655, 50.26, 30.54
4.5045487920443215, 50.26, 30.54
4.5212735096613565, 50.4, 30.54
4.537999125321706, 50.32, 30.54
4.5547216494878136, 50.4, 30.54
4.571446684996287, 50.36, 30.58
4.588171891371409, 49.98, 30.58
4.6048930565516155, 49.84, 30.58
4.621620472272237, 49.8, 30.58
4.63834468126297, 49.68, 30.54
4.655069843928019, 49.58, 30.54
4.671793405214945, 49.54, 30.54
4.688519628842672, 49.42, 30.54
4.705242808659872, 49.58, 30.54
4.72196862300237, 49.66, 30.54
4.738691560427347, 49.18, 30.54
4.755414986610413, 49.08, 30.5
4.772138698895772, 49.18, 30.5
4.788865792751312, 49.4, 30.5
4.805588789780935, 49.4, 30.5
4.822313857078552, 49.26, 30.5
4.839038443565369, 48.84, 30.54
4.855762334664663, 48.62, 30.5
4.872487711906433, 48.4, 30.44
4.8891454895337425, 48.24, 30.44
4.905871216456095, 48.24, 30.4
4.922596510251363, 48.02, 30.4
4.939318684736888, 48.58, 30.36
4.956043100357055, 48.44, 30.4
4.972769252459208, 48.54, 30.4
4.989491566022237, 48.58, 30.4
5.006216983000438, 48.52, 30.4
5.022941307226817, 48.58, 30.4
5.039667558670044, 48.44, 30.4
5.056390535831452, 48.44, 30.44
5.073112980524699, 48.32, 30.4
5.089840026696523, 48.24, 30.4
5.106564287344614, 48.24, 30.4
5.123288532098134, 48.1, 30.4
5.140014032522838, 47.76, 30.4
5.156737128893535, 47.84, 30.4
5.17346411148707, 47.92, 30.4
5.1901829163233435, 47.92, 30.4
5.2069057583808895, 47.58, 30.4
5.2236350774765015, 47.92, 30.36
5.2403705755869545, 47.72, 30.36
5.25708300669988, 47.72, 30.36
5.273805940151215, 47.76, 30.36
5.290532743930816, 47.62, 30.36
5.307252391179403, 47.5, 30.36
5.323979473114013, 47.36, 30.36
5.340704659620921, 47.28, 30.36
5.357432154814402, 47.28, 30.36
5.374152859052022, 47.16, 30.36
5.3908764839172365, 47.08, 30.32
5.407604531447093, 46.98, 30.32
5.424325247605641, 46.9, 30.32
5.441051042079925, 47.06, 30.32
5.457711625099182, 47.08, 30.32
5.474434367815653, 47.02, 30.32
5.491162403424581, 47.02, 30.32
5.507885225613912, 46.94, 30.32
5.524612041314443, 46.9, 30.32
5.541335002581278, 46.9, 30.32
5.558055265744527, 46.78, 30.32
5.574780301253001, 46.7, 30.32
5.591504899660746, 46.62, 30.32
5.608229537804921, 46.46, 30.28
5.6249571442604065, 46.36, 30.28
5.641683502991994, 46.42, 30.28
5.658402609825134, 46.5, 30.28
5.675134082635243, 46.58, 30.28
5.691856861114502, 46.46, 30.28
5.7085790475209555, 46.4, 30.28
5.725300025939942, 46.46, 30.28
5.74202573299408, 46.36, 30.28
5.758752652009329, 46.08, 30.28
5.775476574897766, 45.92, 30.24
5.7922032634417215, 45.88, 30.24
5.8089297691981, 45.8, 30.24
5.825652889410654, 45.84, 30.18
5.842378095785777, 45.56, 30.18
5.859101259708405, 45.84, 30.18
5.8758254766464235, 45.72, 30.18
5.892549069722493, 45.52, 30.14
5.909274959564209, 45.4, 30.14
5.926000475883484, 45.14, 30.1
5.942724645137787, 44.62, 30.1
5.959448794523875, 44.54, 30.06
5.976172737280527, 44.5, 30.02
5.99289581378301, 44.78, 30.02
6.0095573425292965, 44.26, 29.96
6.026280005772908, 44.38, 29.92
6.043005625406901, 44.82, 29.92
6.059731181462606, 45.1, 29.92
6.076454575856527, 44.78, 29.92
6.0931791742642725, 44.74, 29.92
6.109903657436371, 44.78, 29.92
6.126628255844116, 44.82, 29.92
6.143352035681406, 44.86, 29.92
6.160074345270792, 44.86, 29.92
6.176802249749501, 44.78, 29.92
6.193524344762166, 44.66, 29.92
6.210245235761007, 44.66, 29.92
6.226975059509277, 44.5, 29.92
6.243696832656861, 44.38, 29.88
6.260425269603729, 44.62, 29.88
6.2771439750989275, 44.1, 29.88
6.293871398766836, 44.06, 29.84
6.310590076446533, 44.26, 29.88
6.327321569124858, 43.94, 29.84
6.344046433766683, 44.02, 29.84
6.360771099726359, 44.3, 29.84
6.377496302127838, 44.06, 29.84
6.394220809141795, 43.98, 29.84
6.410944656531016, 43.9, 29.84
6.427669739723205, 43.9, 29.8
6.444392613569895, 43.98, 29.8
6.461117780208587, 44.06, 29.84
6.477842501799265, 43.86, 29.8
6.494566881656647, 43.74, 29.8
6.511290927728017, 43.94, 29.8
6.528016229470571, 43.7, 29.8
6.544740223884583, 43.46, 29.8
6.561400171120962, 43.66, 29.74
6.578123784065246, 43.54, 29.74
6.59484852552414, 43.54, 29.74
6.6115728934605915, 42.52, 29.74
6.6282979091008505, 42.28, 29.7
6.64501823981603, 42.84, 29.7
6.661740680535634, 43.2, 29.66
6.678468457857767, 43.3, 29.66
6.69519210656484, 43.34, 29.7
6.7119166652361555, 43.16, 29.66
6.728642431894938, 43.26, 29.66
6.745366537570954, 43.2, 29.66
6.762092554569245, 43.0, 29.66
6.778812992572784, 43.12, 29.66
6.795540312925975, 43.12, 29.66
6.8122637112935385, 43.16, 29.66
6.828990717728932, 43.12, 29.7
6.845713933308919, 43.0, 29.66
6.862440590063731, 42.92, 29.66
6.879163638750712, 42.84, 29.66
6.8958895921707155, 42.76, 29.66
6.912612454096476, 42.64, 29.62
6.9293366312980655, 42.6, 29.62
6.946063709259033, 42.52, 29.62
6.962787159283956, 42.64, 29.62
6.979510597387949, 42.52, 29.62
6.996235982577006, 42.48, 29.58
7.012960294882457, 42.52, 29.62
7.029684444268544, 42.4, 29.58
7.0464085102081295, 42.36, 29.58
7.063133879502614, 42.44, 29.58
7.079857830206553, 42.4, 29.58
7.096582078933716, 42.32, 29.58
7.113306307792664, 42.32, 29.58
7.129966072241465, 42.32, 29.58
7.1466909090677895, 42.2, 29.58
7.163409964243571, 42.16, 29.58
7.180140070120493, 42.16, 29.58
7.1968652645746864, 42.14, 29.58
7.213589413960775, 42.14, 29.58
7.230313920974732, 42.06, 29.58
7.247039226690928, 42.06, 29.58
7.263762791951497, 41.98, 29.54
7.280486031373342, 41.98, 29.58
7.297210534413655, 41.9, 29.58
7.31393609046936, 41.9, 29.54
7.330660776297251, 41.86, 29.54
7.347385815779368, 41.78, 29.54
7.36411019563675, 41.7, 29.54
7.380835028489431, 41.7, 29.54
7.39755900700887, 41.58, 29.48
7.414283124605815, 41.66, 29.54
7.431005235513052, 41.66, 29.54
7.447732957204183, 41.5, 29.48
7.464450482527415, 41.42, 29.48
7.4811815818150835, 41.38, 29.48
7.497906219959259, 41.38, 29.48
7.514629701773326, 41.3, 29.48
7.5313549637794495, 41.22, 29.44
7.548077670733134, 41.04, 29.44
7.564802598953247, 41.04, 29.44
7.581527475516001, 41.08, 29.44
7.598251008987427, 41.04, 29.44
7.614976600805918, 41.04, 29.44
7.631701568762462, 41.0, 29.4
7.648425376415252, 40.96, 29.4
7.665149835745494, 40.92, 29.4
7.681809441248576, 40.88, 29.4
7.698534699281057, 40.84, 29.36
7.715257930755615, 40.84, 29.36
7.731982680161794, 40.92, 29.36
7.748707592487335, 40.88, 29.36
7.765432568391164, 40.76, 29.36
7.78215620915095, 40.68, 29.32
7.798882007598877, 40.68, 29.36
7.815605171521505, 40.68, 29.36
7.832331852118174, 40.56, 29.32
7.849054276943207, 40.52, 29.32
7.865780178705851, 40.14, 29.32
7.882502965132395, 40.6, 29.32
7.899229657649994, 40.38, 29.32
7.915952928860983, 40.52, 29.26
7.93267502784729, 40.42, 29.26
7.9494010011355085, 40.18, 29.26
7.966125977039337, 39.44, 29.22
7.982848385969798, 39.28, 29.22
7.999574871857961, 40.46, 29.18
8.016299470265706, 40.34, 29.22
8.033023715019226, 39.72, 29.22
8.049748547871907, 39.4, 29.18
8.0664732893308, 39.44, 29.18
8.083198726177216, 38.96, 29.14
8.099921214580537, 39.48, 29.1
8.11664605140686, 39.72, 29.1
8.133370606104533, 39.64, 29.1
8.1500949939092, 39.2, 29.1
8.166819481054942, 39.12, 29.06
8.18354385693868, 39.24, 29.06
8.20026820898056, 39.36, 29.06
8.216993248462677, 39.4, 29.0
8.233717676003774, 39.32, 29.0
8.250376645723978, 39.48, 29.0
8.26710064013799, 39.56, 29.0
8.28382541735967, 39.48, 29.0
8.300549924373627, 39.44, 29.0
8.317274208863576, 39.44, 29.0
8.334000472227732, 39.44, 29.0
8.350723846753437, 39.44, 29.0
8.367447566986083, 39.4, 29.0
8.384172801176707, 39.36, 29.0
8.400897332032521, 39.24, 29.0
8.417621433734894, 39.24, 29.0
8.434344323476155, 39.2, 28.96
8.451070741812389, 39.2, 28.96
8.467795586585998, 39.28, 28.96
8.484519648551942, 39.24, 29.0
8.501243857542674, 39.2, 28.96
8.517968094348907, 39.16, 28.96
8.534692748387654, 39.12, 28.96
8.551417577266694, 39.08, 28.96
8.568142096201578, 39.0, 28.96
8.58486720720927, 38.96, 28.92
8.601590816179911, 38.96, 28.96
8.618315076828003, 38.96, 28.96
8.635038963953654, 38.96, 28.96
8.65176397562027, 38.88, 28.92
8.66848871310552, 38.84, 28.92
8.685213685035706, 38.84, 28.92
8.701937441031138, 38.84, 28.92
8.718664411703745, 38.8, 28.92
8.735386510690054, 38.8, 28.92
8.75211143096288, 38.76, 28.92
8.768835993607839, 38.76, 28.92
8.7854931751887, 38.72, 28.92
8.802217626571656, 38.68, 28.88
8.818941915035248, 38.6, 28.88
8.835667272408804, 38.56, 28.88
8.852390575408936, 38.52, 28.88
8.86911776860555, 38.46, 28.88
8.885842196146648, 38.42, 28.88
8.902566556135813, 38.38, 28.88
8.919288845856984, 38.34, 28.88
8.936013992627462, 38.34, 28.88
8.952740486462911, 38.34, 28.84
8.96946558157603, 38.26, 28.88
8.986188729604086, 38.26, 28.88
9.002913304169972, 38.22, 28.88
9.019637505213419, 38.18, 28.88
9.036361992359161, 38.14, 28.84
9.053083423773447, 38.14, 28.84
9.069810279210408, 38.06, 28.84
9.086535477638245, 37.98, 28.78
9.103256404399872, 38.02, 28.78
9.119984312852223, 37.94, 28.78
9.136708656946817, 37.86, 28.78
9.15343073606491, 37.8, 28.78
9.170158402125042, 37.8, 28.78
9.186882237593332, 37.9, 28.74
9.203606204191844, 37.76, 28.78
9.220331577459971, 37.72, 28.74
9.237055106957753, 37.76, 28.74
9.25378053188324, 37.8, 28.74
9.270503238836925, 37.76, 28.74
9.287227829297384, 37.8, 28.74
9.30395313501358, 37.76, 28.74
9.320678353309631, 37.68, 28.74
9.33733738263448, 37.64, 28.7
9.354061551888783, 37.6, 28.74
9.370784946282704, 37.52, 28.7
9.387509795029958, 37.48, 28.7
9.404233519236247, 37.48, 28.7
9.420959202448527, 37.48, 28.7
9.437684992949167, 37.32, 28.66
9.454409571488698, 37.36, 28.66
9.471133871873219, 37.32, 28.66
9.487857786814372, 37.4, 28.66
9.504582436879476, 37.4, 28.66
9.521307102839152, 37.36, 28.62
9.538031307856242, 37.28, 28.62
9.554756089051564, 37.28, 28.62
9.571481017271678, 37.14, 28.62
9.588205552101135, 37.14, 28.62
9.604930460453033, 37.1, 28.62
9.621653985977172, 37.06, 28.58
9.638378914197286, 37.06, 28.58
9.655102860927581, 37.06, 28.58
9.67182719707489, 37.1, 28.52
9.688551763693491, 36.98, 28.52
9.705276918411254, 37.06, 28.52
9.722000912825267, 36.94, 28.58
9.738725233078004, 37.02, 28.52
9.755449537436167, 36.9, 28.52
9.772173674901326, 36.9, 28.52
9.788898448149363, 36.86, 28.52
9.805623042583466, 36.86, 28.52
9.82234746615092, 36.78, 28.48
9.839071865876516, 36.82, 28.52
9.855794874827067, 36.82, 28.52
9.872521428267161, 36.74, 28.48
9.889245279630025, 36.74, 28.48
9.905904730161032, 36.7, 28.48
9.922629408041637, 36.7, 28.48
9.939352679252625, 36.66, 28.48
9.956076840559641, 36.58, 28.48
9.972803552945456, 36.54, 28.48
9.989527340730032, 36.54, 28.48
10.006250460942587, 36.5, 28.44
10.022976354757946, 36.5, 28.44
10.039699868361156, 36.46, 28.44
10.056423950195313, 36.5, 28.44
10.073149756590526, 36.42, 28.44
10.089874502023061, 36.42, 28.4
10.106599513689677, 36.36, 28.44
10.1233238140742, 36.32, 28.44
10.140048170089722, 36.28, 28.44
10.156772581736247, 36.28, 28.4
10.173495399951936, 36.24, 28.4
10.19022118250529, 36.2, 28.4
10.20694546699524, 36.16, 28.4
10.223670868078868, 36.16, 28.4
10.240394326051076, 36.2, 28.4
10.257117970784504, 36.16, 28.36
10.273843582471212, 36.16, 28.36
10.29056943655014, 36.06, 28.36
10.307292107741038, 36.02, 28.36
10.324015804131825, 36.02, 28.36
10.340739687283834, 35.98, 28.36
10.35746620496114, 35.98, 28.36
10.374189766248067, 35.94, 28.36
10.390914285182953, 35.9, 28.36
10.40763879219691, 35.9, 28.36
10.424362818400065, 35.8, 28.3
10.441020266215007, 35.9, 28.3
10.4577467640241, 35.8, 28.3
10.474470619360606, 35.8, 28.3
10.491197057565053, 35.76, 28.3
10.507921016216278, 35.72, 28.3
10.524645380179088, 35.68, 28.3
10.541370407740276, 35.68, 28.3
10.558094847202302, 35.68, 28.26
10.5748189051946, 35.64, 28.3
10.591543491681417, 35.54, 28.26
10.60826791524887, 35.5, 28.26
10.624992235501606, 35.5, 28.26
10.641716730594634, 35.5, 28.26
10.65844315290451, 35.46, 28.22
10.675165955225626, 35.42, 28.22
10.691890879472096, 35.46, 28.22
10.708615259329479, 35.46, 28.22
10.725338776906332, 35.42, 28.22
10.742064134279888, 35.42, 28.22
10.758788180351257, 35.42, 28.22
10.775512588024139, 35.32, 28.18
10.792237480481466, 35.38, 28.18
10.808961391448975, 35.32, 28.22
10.825686554114023, 35.28, 28.18
10.842410759131115, 35.24, 28.18
10.859134221076966, 35.2, 28.18
10.87585913737615, 35.2, 28.18
10.892583986123404, 35.2, 28.18
10.90930780172348, 35.12, 28.14
10.926030854384104, 35.16, 28.14
10.942756267388662, 35.16, 28.14
10.95948150952657, 35.16, 28.14
10.976206489404042, 35.12, 28.14
10.992929867903392, 35.12, 28.14
11.009590590000153, 35.06, 28.14
11.026314731438955, 35.06, 28.14
11.043039536476135, 35.02, 28.14
11.05976380109787, 35.02, 28.14
11.076485339800517, 34.98, 28.14
11.093211551507315, 34.94, 28.14
11.10993663072586, 34.9, 28.1
11.126660605271658, 34.86, 28.1
11.143386081854503, 34.86, 28.1
11.160110465685527, 34.86, 28.1
11.176832207043965, 34.8, 28.1
11.193555887540182, 34.8, 28.04
11.210278673966725, 34.76, 28.1
11.227004488309225, 34.72, 28.04
11.24373012383779, 34.72, 28.04
11.260453991095225, 34.64, 28.04
11.277180318037669, 34.64, 28.04
11.293904467423756, 34.64, 28.04
11.310629204909008, 34.6, 28.04
11.327354764938354, 34.54, 28.0
11.344076677163441, 34.54, 28.04
11.360804307460786, 34.5, 28.0
11.377527503172557, 34.54, 28.0
11.394250229994457, 34.5, 28.0
11.41097739537557, 34.38, 28.0
11.427701671918234, 34.38, 28.0
11.444422884782155, 34.38, 28.0
11.461150602499645, 34.38, 27.96
11.477875165144603, 34.24, 27.96
11.494599636395773, 34.24, 27.96
11.511324139436086, 34.24, 27.96
11.528048805395763, 34.24, 27.96
11.544706956545513, 34.24, 27.92
11.561432699362436, 34.28, 27.92
11.578155155976614, 34.28, 27.96
11.594881629943847, 34.24, 27.92
11.611605668067932, 34.24, 27.92
11.62833126783371, 34.2, 27.92
11.645053168137869, 34.2, 27.92
11.661786425113679, 34.2, 27.92
11.678500696023304, 34.16, 27.92
11.69522742430369, 34.16, 27.88
11.711951132615408, 34.12, 27.92
11.728676803906758, 34.12, 27.88
11.745398386319478, 34.04, 27.92
11.762123334407807, 34.04, 27.92
11.778852188587189, 34.0, 27.88
11.7955748518308, 34.0, 27.88
11.812297121683757, 33.96, 27.88
11.829022860527038, 33.92, 27.88
11.845747212568918, 33.88, 27.88
11.862471759319305, 33.84, 27.88
11.879198169708252, 33.88, 27.88
11.895921417077382, 33.92, 27.82
11.912642772992452, 33.84, 27.82
11.929371321201325, 33.84, 27.82
11.946095319588979, 33.84, 27.82
11.96281984647115, 33.8, 27.82
11.979544321695963, 33.8, 27.82
11.996267223358155, 33.8, 27.82
12.012992759545645, 33.74, 27.78
12.02971798578898, 33.74, 27.82
12.046442500750224, 33.74, 27.82
12.063166968027751, 33.7, 27.78
12.079890954494477, 33.7, 27.82
12.096550122896831, 33.62, 27.78
12.11327513853709, 33.62, 27.78
12.130000340938569, 33.58, 27.78
12.146725686391195, 33.58, 27.78
12.1634463707606, 33.54, 27.78
12.180173087120057, 33.44, 27.74
12.196897681554159, 33.44, 27.78
12.213622613747914, 33.44, 27.74
12.230346568425496, 33.44, 27.74
12.24706959327062, 33.44, 27.74
12.263795185089112, 33.4, 27.74
12.28051961660385, 33.4, 27.74
12.297244807084402, 33.36, 27.74
12.313962058226268, 33.32, 27.74
12.330694647630056, 33.32, 27.7
12.347418304284414, 33.28, 27.7
12.364141738414764, 33.28, 27.74
12.380867417653402, 33.28, 27.7
12.397591471672058, 33.22, 27.7
12.414314448833466, 33.22, 27.7
12.431039142608643, 33.18, 27.7
12.447765362262725, 33.14, 27.7
12.464489475886028, 33.1, 27.7
12.481214296817779, 33.1, 27.66
12.497938934961955, 33.1, 27.66
12.514661371707916, 33.1, 27.66
12.531386880079905, 33.06, 27.66
12.54811103741328, 33.1, 27.66
12.5648344039917, 33.1, 27.66
12.58156079451243, 33.06, 27.62
12.598285035292308, 33.06, 27.62
12.61501005490621, 32.96, 27.62
12.631734371185303, 32.96, 27.66
12.648393686612447, 32.96, 27.62
12.665116528669992, 32.96, 27.62
12.681842486063639, 32.96, 27.62
12.698567378520966, 32.92, 27.62
12.715291436513265, 32.92, 27.62
12.732015673319498, 32.92, 27.62
12.748739437262218, 32.88, 27.62
12.765465819835663, 32.84, 27.62
12.782188959916432, 32.84, 27.56
12.798913645744324, 32.84, 27.56
12.815637850761414, 32.84, 27.56
12.83236229022344, 32.8, 27.56
12.849087635676065, 32.8, 27.56
12.865812087059021, 32.76, 27.56
12.882536685466766, 32.76, 27.56
12.899260437488556, 32.7, 27.56
12.915985278288524, 32.7, 27.56
12.932709403832753, 32.66, 27.52
12.949433982372284, 32.66, 27.52
12.966158870855967, 32.66, 27.52
12.982883071899414, 32.62, 27.52
12.999606855710347, 32.62, 27.52
13.016333023707071, 32.58, 27.52
13.033056660493214, 32.58, 27.52
13.04978111187617, 32.58, 27.48
13.06650459766388, 32.54, 27.48
13.083228727181753, 32.58, 27.48
13.099954112370808, 32.54, 27.48
13.11667863925298, 32.5, 27.48
13.133403110504151, 32.5, 27.48
13.150127943356832, 32.44, 27.48
13.166852561632792, 32.44, 27.48
13.183577068646748, 32.44, 27.48
13.200235970815022, 32.4, 27.48
13.216960310935974, 32.4, 27.48
13.233684686819712, 32.4, 27.44
13.250409138202667, 32.36, 27.44
13.267134535312653, 32.32, 27.44
13.28385860522588, 32.32, 27.44
13.300583283106485, 32.32, 27.44
13.317307949066162, 32.32, 27.44
13.334030203024547, 32.32, 27.44
13.350756148497263, 32.28, 27.44
13.367481418450673, 32.24, 27.4
13.384205241998037, 32.18, 27.4
13.400931139787039, 32.18, 27.4
13.417654629548391, 32.24, 27.4
13.434380304813384, 32.24, 27.4
13.451103635629018, 32.18, 27.4
13.46782972017924, 32.14, 27.4
13.484552113215129, 32.14, 27.4
13.501276814937592, 32.14, 27.34
13.518001886208852, 32.1, 27.34
13.534725924332937, 31.98, 27.34
13.551450105508168, 31.98, 27.34
13.568173821767171, 32.06, 27.34
13.584899695714315, 32.02, 27.34
13.601624166965484, 31.98, 27.34
13.618347557385762, 31.98, 27.3
13.635070979595184, 31.98, 27.34
13.651796452204387, 31.88, 27.3
13.668520784378051, 31.92, 27.34
13.68524569272995, 31.92, 27.3
13.701969838142395, 31.88, 27.3
13.718695036570232, 31.84, 27.3
13.7354194521904, 31.84, 27.3
13.752078620592753, 31.84, 27.3
13.768802587191264, 31.84, 27.3
13.785527761777242, 31.84, 27.3
13.802252264817556, 31.84, 27.3
13.818976231416066, 31.84, 27.3
13.835700821876525, 31.8, 27.3
13.852424176534017, 31.8, 27.3
13.869150173664092, 31.8, 27.26
13.885872916380565, 31.8, 27.26
13.90259928703308, 31.8, 27.26
13.919322327772777, 31.72, 27.26
13.936047983169555, 31.76, 27.26
13.952772005399067, 31.76, 27.22
13.969497259457906, 31.72, 27.26
13.986221611499786, 31.66, 27.26
14.002944087982177, 31.66, 27.26
14.019670454661052, 31.62, 27.22
14.03639444510142, 31.62, 27.22
14.053119194507598, 31.62, 27.22
14.06984339952469, 31.58, 27.22
14.086568093299865, 31.58, 27.22
14.103292687733967, 31.54, 27.22
14.120017977555593, 31.58, 27.22
14.136741125583649, 31.58, 27.18
14.153467051188152, 31.58, 27.22
14.17018965880076, 31.54, 27.18
14.186914308865864, 31.46, 27.18
14.203638756275177, 31.46, 27.18
14.220362969239552, 31.54, 27.22
14.237087925275167, 31.42, 27.18
14.25381182829539, 31.42, 27.18
14.270534181594849, 31.42, 27.18
14.287259499231974, 31.38, 27.18
14.3039173523585, 31.38, 27.18
14.320645753542582, 31.28, 27.12
14.337370220820109, 31.28, 27.12
14.3540944814682, 31.28, 27.12
14.370819095770518, 31.24, 27.12
14.387542760372162, 31.18, 27.12
14.404268296559652, 31.18, 27.12
14.420992851257324, 31.18, 27.12
14.437717362244923, 31.18, 27.08
14.45444041887919, 31.18, 27.08
14.471165076891582, 31.18, 27.12
14.487890736262004, 31.18, 27.12
14.504614953200022, 31.14, 27.08
14.521338001887004, 31.14, 27.08
14.538065071900686, 31.14, 27.08
14.554788510004679, 31.1, 27.08
14.57151342233022, 31.1, 27.08
14.588236494859059, 31.06, 27.08
14.604961176713308, 31.1, 27.08
14.621684845288595, 31.1, 27.08
14.63841089407603, 31.06, 27.08
14.655135329564413, 31.0, 27.04
14.671860245863597, 31.0, 27.04
14.688584474722544, 31.0, 27.04
14.70530771414439, 30.96, 27.04
14.722030568122864, 31.0, 27.04
14.738757475217183, 30.96, 27.04
14.755481481552124, 30.96, 27.04
14.772205861409505, 30.92, 27.04
14.78893217643102, 30.92, 27.0
14.805654613176982, 30.92, 27.0
14.82237977584203, 30.86, 27.0
14.839104358355204, 30.82, 27.0
14.855761631329854, 30.82, 27.0
14.872487612565358, 30.78, 27.0
14.889211591084798, 30.82, 26.96
14.905937751134237, 30.82, 26.96
14.922661689917247, 30.78, 27.0
14.939386816819509, 30.78, 27.0
14.95610891977946, 30.78, 27.0
14.972835759321848, 30.74, 26.96
14.989558267593384, 30.74, 26.96
15.00628347794215, 30.74, 26.96
15.0230082988739, 30.74, 26.96
15.039733409881592, 30.68, 26.96
15.056455433368683, 30.68, 26.96
15.07318217754364, 30.64, 26.96
15.08990692694982, 30.68, 26.96
15.106631100177765, 30.68, 26.96
15.123355114459992, 30.68, 26.96
15.14007946252823, 30.64, 26.92
15.156803572177887, 30.64, 26.96
15.173529700438182, 30.64, 26.96
15.19025274515152, 30.6, 26.92
15.206976846853893, 30.6, 26.92
15.223702541987102, 30.6, 26.92
15.240425797303518, 30.6, 26.92
15.257150117556254, 30.6, 26.92
15.273874672253926, 30.6, 26.92
15.29059930642446, 30.56, 26.92
15.307323892911276, 30.56, 26.86
15.32404705286026, 30.56, 26.92
15.34077297449112, 30.5, 26.92
15.357497930526733, 30.46, 26.86
15.374222099781036, 30.46, 26.86
15.390881419181824, 30.5, 26.92
15.407604547341665, 30.46, 26.86
15.42432873249054, 30.46, 26.86
15.441055266062419, 30.46, 26.86
15.457779820760091, 30.46, 26.86
15.474503286679585, 30.42, 26.86
15.491229061285654, 30.42, 26.86
15.507953178882598, 30.36, 26.86
15.524677220980326, 30.42, 26.86
15.54140201807022, 30.42, 26.82
15.55812608798345, 30.36, 26.86
15.574851016203562, 30.32, 26.82
15.591575400034587, 30.36, 26.86
15.608299589157104, 30.32, 26.82
15.62502434651057, 30.32, 26.86
15.641749171415965, 30.28, 26.82
15.658473948637644, 30.28, 26.82
15.675197350978852, 30.28, 26.82
15.69192190170288, 30.28, 26.82
15.708646249771117, 30.24, 26.82
15.72537104288737, 30.24, 26.82
15.742095386981964, 30.24, 26.78
15.758821062246959, 30.14, 26.78
15.77554456392924, 30.14, 26.78
15.792270163695017, 30.14, 26.78
15.80899285475413, 30.14, 26.78
15.825718808174134, 30.14, 26.78
15.842441670099895, 30.14, 26.78
15.859168048699697, 30.14, 26.78
15.875891470909119, 30.1, 26.78
15.892615822950999, 30.1, 26.78
15.90933833916982, 30.1, 26.78
15.926065035661061, 30.04, 26.74
15.942723910013834, 30.1, 26.78
15.959448568026225, 30.1, 26.74
15.976173023382822, 30.0, 26.78
15.992897367477417, 30.0, 26.74
16.009622168540954, 29.96, 26.74
16.02634701728821, 29.96, 26.74
16.04307139714559, 29.96, 26.74
16.059796361128488, 29.96, 26.74
16.07651969989141, 29.96, 26.74
16.093243885040284, 29.96, 26.74
16.10996843179067, 29.92, 26.74
16.12669357856115, 29.92, 26.74
16.14341805378596, 29.86, 26.74
16.160142274697623, 29.86, 26.74
16.176865649223327, 29.92, 26.7
16.193588185310364, 29.86, 26.7
16.21031239827474, 29.86, 26.7
16.227035744984946, 29.86, 26.7
16.243765676021575, 29.86, 26.7
16.260486753781638, 29.86, 26.7
16.27721065680186, 29.82, 26.64
16.29393794139226, 29.78, 26.7
16.310662257671357, 29.82, 26.7
16.327387563387553, 29.82, 26.64
16.3441122174263, 29.82, 26.7
16.36083482503891, 29.74, 26.7
16.37755940357844, 29.74, 26.64
16.394284550348917, 29.78, 26.7
16.41100704272588, 29.74, 26.64
16.42773441473643, 29.68, 26.7
16.44445835351944, 29.68, 26.64
16.4611829717954, 29.64, 26.6
16.477906294663747, 29.68, 26.64
16.4945658882459, 29.68, 26.64
16.511290713151297, 29.68, 26.64
16.52801502943039, 29.64, 26.6
16.54473943710327, 29.64, 26.6
16.56146222750346, 29.6, 26.6
16.578189086914062, 29.6, 26.6
16.59491311311722, 29.6, 26.6
16.61163733005524, 29.6, 26.6
16.62836238940557, 29.6, 26.6
16.645082871119182, 29.6, 26.6
16.661806893348693, 29.6, 26.6
16.678530581792195, 29.54, 26.6
16.695256872971854, 29.54, 26.6
16.711984713872273, 29.54, 26.6
16.72870719830195, 29.5, 26.6
16.745428069432577, 29.46, 26.56
16.762154658635456, 29.5, 26.56
16.778879888852437, 29.46, 26.56
16.802702931563058, 29.46, 26.56
16.81943070491155, 29.46, 26.56
16.836156340440116, 29.42, 26.56
16.852878499031068, 29.42, 26.56
16.86960252126058, 29.42, 26.56
16.88632909456889, 29.42, 26.56
16.903051479657492, 29.32, 26.52
16.91977527538935, 29.36, 26.56
16.93650007645289, 29.36, 26.56
16.95322594245275, 29.36, 26.56
16.969950846831004, 29.36, 26.52
16.986675453186034, 29.36, 26.52
17.003400059541068, 29.32, 26.56
17.020122448603313, 29.36, 26.52
17.036783536275227, 29.32, 26.52
17.05350778102875, 29.32, 26.52
17.070231934388477, 29.32, 26.52
17.08695689837138, 29.28, 26.52
17.103679716587067, 29.28, 26.52
17.12040648063024, 29.28, 26.52
17.13713070948919, 29.28, 26.52
17.153853917121886, 29.22, 26.52
17.170580414930978, 29.18, 26.48
17.187304027875264, 29.22, 26.48
17.204027851422627, 29.18, 26.48
17.220752942562104, 29.18, 26.48
17.237476154168448, 29.14, 26.48
17.254202059904735, 29.14, 26.48
17.270926888783773, 29.14, 26.44
17.287650827566782, 29.14, 26.48
17.304375648498535, 29.14, 26.48
17.32109954357147, 29.14, 26.48
17.337825981775918, 29.14, 26.48
17.354551108678184, 29.14, 26.44
17.371277324358623, 29.14, 26.44
17.38800240357717, 29.14, 26.44
17.404727375507356, 29.1, 26.44
17.421451512972514, 29.1, 26.44
17.438178420066833, 29.1, 26.44
17.454901591936746, 29.0, 26.44
17.471627608935037, 29.1, 26.44
17.488352902730306, 29.04, 26.44
17.50507833957672, 29.04, 26.44
17.521803387006123, 29.04, 26.44
17.53852869272232, 28.96, 26.38
17.555253704388935, 28.96, 26.38
17.571978839238486, 28.96, 26.38
17.588702225685118, 28.96, 26.38
17.605363849798838, 28.96, 26.38
17.622087872028352, 28.92, 26.38
17.638812510172524, 29.0, 26.38
17.655537708600363, 28.92, 26.38
17.67226254940033, 28.92, 26.38
17.688987720012666, 28.92, 26.38
17.705712119738262, 28.88, 26.34
17.722436491648356, 28.92, 26.38
17.73916138013204, 28.88, 26.34
17.75588553349177, 28.92, 26.38
17.77261133591334, 28.92, 26.34
17.78933624426524, 28.84, 26.34
17.806060429414114, 28.84, 26.34
17.822784785429636, 28.84, 26.34
17.83951046069463, 28.84, 26.34
17.856235357125602, 28.84, 26.34
17.872958449522653, 28.8, 26.34
17.88968343734741, 28.8, 26.34
17.906407912572224, 28.8, 26.34
17.923131740093233, 28.8, 26.34
17.93985757827759, 28.8, 26.34
17.956574920813242, 28.74, 26.34
17.97330667177836, 28.7, 26.3
17.9900270541509, 28.74, 26.3
18.006754716237385, 28.74, 26.3
18.023479811350505, 28.7, 26.34
18.040204532941182, 28.7, 26.3
18.056928698221842, 28.66, 26.3
18.07365139722824, 28.7, 26.3
18.090378348032633, 28.66, 26.3
18.107102767626444, 28.66, 26.3
18.12382768392563, 28.66, 26.3
18.140486160914104, 28.66, 26.3
18.15721126794815, 28.66, 26.3
18.173935651779175, 28.66, 26.3
18.190659884611765, 28.66, 26.3
18.207385138670602, 28.66, 26.26
18.224108147621155, 28.66, 26.26
18.240834295749664, 28.66, 26.3
18.257558584213257, 28.62, 26.3
18.274282467365264, 28.62, 26.26
18.291006779670717, 28.62, 26.26
18.30773191054662, 28.56, 26.26
18.324456373850506, 28.52, 26.26
18.341180741786957, 28.56, 26.26
18.35790249903997, 28.56, 26.26
18.37463082075119, 28.56, 26.26
18.39135449330012, 28.48, 26.22
18.40807749032974, 28.52, 26.22
18.424795114994048, 28.48, 26.26
18.441509505112965, 28.52, 26.22
18.45823072195053, 28.48, 26.22
18.47494804461797, 28.42, 26.22
18.49166657924652, 28.42, 26.22
18.5083837946256, 28.42, 26.22
18.525103783607484, 28.42, 26.22
18.54182258049647, 28.42, 26.22
18.558539954821267, 28.42, 26.22
18.575257563591002, 28.34, 26.16
18.591977898279826, 28.42, 26.22
18.608698173364004, 28.38, 26.16
18.625416799386343, 28.42, 26.22
18.642136653264362, 28.34, 26.22
18.658855851491293, 28.34, 26.16
18.67557610273361, 28.34, 26.16
18.692231277624767, 28.34, 26.16
18.7089502453804, 28.34, 26.16
18.7256703654925, 28.34, 26.16
18.742390553156536, 28.34, 26.16
18.75911115805308, 28.3, 26.16
18.775832696755728, 28.3, 26.16
18.792551891009012, 28.34, 26.16
18.809273195266723, 28.3, 26.16
18.825993299484253, 28.3, 26.16
18.84271423816681, 28.3, 26.16
18.859435363610586, 28.3, 26.16
18.876156489054363, 28.3, 26.16
18.89287760655085, 28.3, 26.12
18.90959988832474, 28.3, 26.12
18.92632002433141, 28.24, 26.16
18.943042691548666, 28.24, 26.12
18.959763769308726, 28.2, 26.12
18.976482594013213, 28.2, 26.12
18.993205138047536, 28.24, 26.16
19.00992734034856, 28.2, 26.12
19.026648660500843, 28.2, 26.12
19.043370640277864, 28.2, 26.12
19.06009203195572, 28.16, 26.12
19.076814186573028, 28.16, 26.12
19.09353597164154, 28.16, 26.12
19.11025719245275, 28.16, 26.12
19.126979585488638, 28.16, 26.08
19.143701899051667, 28.16, 26.12
19.160423568884532, 28.16, 26.12
19.17714599768321, 28.16, 26.08
19.193868370850883, 28.16, 26.08
19.2105894724528, 28.1, 26.08
19.227312393983205, 28.16, 26.08
19.243969718615215, 28.16, 26.08
19.260692409674327, 28.16, 26.08
19.277414838473003, 28.1, 26.08
19.294137076536813, 28.1, 26.08
19.310859819253285, 28.1, 26.08
19.327582355340322, 28.06, 26.08
19.34430388212204, 28.06, 26.08
19.361027574539186, 28.06, 26.08
19.377749900023144, 28.06, 26.08
19.394472789764404, 28.06, 26.08
19.411195723215737, 28.06, 26.08
19.427916395664216, 27.98, 26.04
19.444640123844145, 27.98, 26.04
19.461364976565044, 28.02, 26.04
19.478086626529695, 28.02, 26.04
19.494808594385784, 28.02, 26.04
19.511532485485077, 27.98, 26.04
19.5282555381457, 27.98, 26.04
19.544978137811025, 27.98, 26.04
19.561700185139973, 27.98, 26.04
19.57842417558034, 27.98, 26.04
19.595147426923116, 27.92, 26.04
19.611870948473612, 27.88, 26.0
19.628590496381126, 27.88, 26.0
19.64531261920929, 27.88, 26.0
19.662038119633994, 27.92, 26.0
19.678761609395345, 27.92, 26.0
19.69548519849777, 27.92, 26.0
19.712207388877868, 27.88, 26.0
19.728932098547617, 27.88, 26.0
19.745654046535492, 27.88, 26.0
19.762311387062073, 27.88, 26.0
19.779034300645193, 27.88, 26.0
19.795759010314942, 27.88, 26.0
19.812482289473216, 27.88, 26.0
19.82920599381129, 27.88, 26.0
19.845929535230002, 27.84, 26.0
19.862652321656544, 27.8, 25.96
19.879374663035076, 27.8, 26.0
19.896098895867667, 27.84, 25.96
19.912822234630585, 27.8, 25.96
19.92954556544622, 27.8, 25.96
19.946268979708353, 27.8, 26.0
19.96299226284027, 27.74, 25.96
19.97971580028534, 27.74, 25.96
19.996438479423524, 27.74, 25.96
20.01316294670105, 27.74, 25.96
20.02988520463308, 27.74, 25.96
20.04660849173864, 27.74, 25.96
20.063332267602284, 27.7, 25.96
20.080055268605552, 27.7, 25.9
20.096779215335847, 27.7, 25.9
20.113502669334412, 27.74, 25.96
20.130226278305052, 27.7, 25.96
20.146948599815367, 27.66, 25.9
20.16367220878601, 27.7, 25.96
20.180395456155143, 27.7, 25.9
20.197119561831155, 27.66, 25.96
20.213841768105826, 27.7, 25.96
20.230565547943115, 27.7, 25.96
20.247290313243866, 27.66, 25.9
20.264013536771138, 27.66, 25.9
20.28067149321238, 27.66, 25.9
20.297394331296285, 27.66, 25.9
20.314118524392445, 27.66, 25.9
20.330841743946074, 27.66, 25.9
20.347567105293273, 27.6, 25.9
20.36428955793381, 27.66, 25.86
20.381013572216034, 27.66, 25.9
20.397737089792887, 27.56, 25.86
20.41445992390315, 27.56, 25.86
20.431182865301768, 27.56, 25.86
20.447907984256744, 27.56, 25.86
20.464631374677023, 27.56, 25.86
20.48135387102763, 27.56, 25.86
20.498077917099, 27.52, 25.86
20.514801355202994, 27.52, 25.86
20.531525182724, 27.52, 25.86
20.54825155735016, 27.52, 25.86
20.564981281757355, 27.52, 25.86
20.581710410118102, 27.52, 25.86
20.59844038486481, 27.52, 25.86
20.615169874827068, 27.52, 25.86
20.63189926544825, 27.48, 25.82
20.64862726132075, 27.42, 25.82
20.665355575084686, 27.42, 25.82
20.682084659735363, 27.42, 25.86
20.698814980189006, 27.42, 25.82
20.715543711185454, 27.48, 25.82
20.732272469997405, 27.42, 25.82
20.749001570542653, 27.48, 25.82
20.765730448563893, 27.42, 25.82
20.782457796732583, 27.38, 25.82
20.79918750921885, 27.42, 25.82
20.815916577974956, 27.38, 25.82
20.83258022069931, 27.38, 25.82
20.849306710561116, 27.38, 25.82
20.86603509982427, 27.38, 25.82
20.882764879862467, 27.38, 25.78
20.899493010838828, 27.38, 25.82
20.91622085571289, 27.34, 25.78
20.932949419816335, 27.38, 25.78
20.949677320321403, 27.28, 25.78
20.966404946645103, 27.28, 25.78
20.983132938543957, 27.28, 25.82
20.99986079533895, 27.34, 25.78
21.016588819026946, 27.34, 25.78
21.033316457271575, 27.28, 25.78
21.050044016043344, 27.28, 25.78
21.06677060921987, 27.28, 25.78
21.083500742912292, 27.28, 25.78
21.100226692358653, 27.28, 25.78
21.11695450146993, 27.28, 25.74
21.133681865533195, 27.28, 25.78
21.150409364700316, 27.28, 25.78
21.167136947313946, 27.24, 25.78
21.18386399745941, 27.24, 25.74
21.200589696566265, 27.24, 25.74
21.21731592019399, 27.2, 25.74
21.23404286702474, 27.24, 25.74
21.25076956351598, 27.24, 25.74
21.267497869332633, 27.2, 25.74
21.284225455919902, 27.2, 25.74
21.300953531265257, 27.2, 25.74
21.317680191993713, 27.2, 25.74
21.334406745433807, 27.2, 25.74
21.35113389889399, 27.2, 25.68
21.367860690752664, 27.2, 25.74
21.384520971775054, 27.2, 25.74
21.401248641808827, 27.2, 25.68
21.417971893151602, 27.16, 25.74
21.434701200326284, 27.16, 25.68
21.45143003463745, 27.1, 25.68
21.46815470457077, 27.1, 25.68
21.484882712364197, 27.1, 25.68
21.501609687010447, 27.1, 25.68
21.51833552122116, 27.1, 25.68
21.535061681270598, 27.1, 25.68
21.551788290341694, 27.1, 25.68
21.568514704704285, 27.1, 25.68
21.585240236918132, 27.1, 25.68
21.601968546708424, 27.1, 25.68
21.618694500128427, 27.1, 25.68
21.635420684019724, 27.1, 25.68
21.652145393689473, 27.06, 25.68
21.668870011965435, 27.06, 25.68
21.685595949490864, 27.02, 25.64
21.702320996920268, 27.06, 25.68
21.71904921134313, 27.02, 25.64
21.735776631037393, 27.02, 25.64
21.75250216325124, 27.02, 25.64
21.769224401315054, 27.02, 25.64
21.78595188061396, 27.02, 25.68
21.80267923672994, 27.02, 25.64
21.819404896100362, 27.02, 25.64
21.83613255023956, 27.06, 25.68
21.852858865261076, 26.98, 25.64
21.86958339611689, 26.98, 25.64
21.88631014029185, 26.98, 25.64
21.90303684870402, 26.98, 25.64
21.919698071479797, 26.98, 25.64
21.93642255067825, 26.98, 25.64
21.953148210048674, 26.98, 25.64
21.969874036312103, 26.98, 25.64
21.986600852012636, 26.98, 25.64
22.003325625260672, 26.98, 25.64
22.02005362510681, 26.98, 25.6
22.036776840686798, 26.98, 25.64
22.05350258350372, 26.92, 25.64
22.07023021777471, 26.92, 25.6
22.086953934033712, 26.92, 25.6
22.10367968479792, 26.92, 25.6
22.120405765374503, 26.92, 25.64
22.137131333351135, 26.92, 25.6
22.153856710592905, 26.92, 25.64
22.170581738154095, 26.92, 25.6
22.18730711142222, 26.92, 25.6
22.204032874107362, 26.92, 25.6
22.22075846592585, 26.92, 25.6
22.237482770284018, 26.92, 25.6
22.254209399223328, 26.92, 25.6
22.2709352294604, 26.92, 25.6
22.287659243742624, 26.84, 25.6
22.30438360373179, 26.88, 25.56
22.32111025651296, 26.88, 25.6
22.337835240364075, 26.88, 25.6
22.354560514291126, 26.84, 25.6
22.371286340554555, 26.88, 25.6
22.388011535008747, 26.84, 25.6
22.404737039407095, 26.88, 25.56
22.421462468306224, 26.84, 25.56
22.438119932015738, 26.84, 25.56
22.45484754641851, 26.78, 25.56
22.471572800477347, 26.78, 25.56
22.488298813501995, 26.78, 25.56
22.50502365032832, 26.78, 25.56
22.5217485666275, 26.78, 25.56
22.538474023342133, 26.78, 25.56
22.555198979377746, 26.78, 25.56
22.571923502286275, 26.78, 25.56
22.58864911397298, 26.74, 25.52
22.605374181270598, 26.78, 25.56
22.622099860509238, 26.78, 25.56
22.63882488409678, 26.78, 25.56
22.655549828211466, 26.78, 25.56
22.67227514584859, 26.7, 25.52
22.689000129699707, 26.7, 25.56
22.70572419166565, 26.7, 25.56
22.722449306646983, 26.7, 25.56
22.73917221625646, 26.7, 25.52
22.755899862448373, 26.7, 25.52
22.772625358899436, 26.7, 25.52
22.78934944073359, 26.7, 25.52
22.806075863043468, 26.7, 25.52
22.822800095876058, 26.7, 25.52
22.839526069164275, 26.7, 25.52
22.856248994668324, 26.7, 25.52
22.872973815600076, 26.66, 25.48
22.889699133237205, 26.7, 25.52
22.906424244244892, 26.7, 25.52
22.923148425420127, 26.7, 25.52
22.939874307314554, 26.66, 25.48
22.956599366664886, 26.66, 25.48
22.973323837916055, 26.7, 25.52
22.989983638127644, 26.66, 25.48
23.006708288192748, 26.6, 25.48
23.02343399922053, 26.6, 25.48
23.040155907471974, 26.6, 25.48
23.056883271535238, 26.6, 25.48
23.073608100414276, 26.6, 25.48
23.090332849820456, 26.6, 25.48
23.107057146231334, 26.6, 25.48
23.12378080288569, 26.6, 25.48
23.140505929787953, 26.6, 25.48
23.15723264614741, 26.6, 25.48
23.17395684719086, 26.56, 25.48
23.190680213769276, 26.56, 25.48
23.207405002911887, 26.56, 25.48
23.224130761623382, 26.56, 25.48
23.24085415204366, 26.56, 25.48
23.25758040746053, 26.56, 25.48
23.27430365085602, 26.56, 25.48
23.291030732790627, 26.56, 25.42
23.307754731178285, 26.52, 25.48
23.324479762713114, 26.52, 25.48
23.3412047902743, 26.52, 25.42
23.357929786046345, 26.52, 25.42
23.374655707677206, 26.56, 25.42
23.391378033161164, 26.52, 25.48
23.40810256799062, 26.52, 25.42
23.424827909469606, 26.52, 25.42
23.44155158996582, 26.52, 25.42
23.458276347319284, 26.56, 25.48
23.47500206629435, 26.52, 25.42
23.491724745432535, 26.52, 25.42
23.508451187610625, 26.52, 25.42
23.525110904375712, 26.52, 25.42
23.541835780938467, 26.46, 25.42
23.558559564749398, 26.42, 25.42
23.57528494199117, 26.46, 25.42
23.592009596029918, 26.46, 25.42
23.608734579881034, 26.46, 25.42
23.625458467006684, 26.42, 25.38
23.642183379332224, 26.42, 25.38
23.65890747308731, 26.46, 25.42
23.67563308874766, 26.46, 25.38
23.69235739707947, 26.46, 25.42
23.70908131202062, 26.42, 25.42
23.72580644687017, 26.42, 25.38
23.742531303564707, 26.42, 25.38
23.759255262215934, 26.42, 25.38
23.775980496406554, 26.42, 25.38
23.792704395453136, 26.42, 25.38
23.809429812431336, 26.42, 25.38
23.826153699556986, 26.38, 25.38
23.842878516515096, 26.42, 25.38
23.859602518876393, 26.38, 25.38
23.876328333218893, 26.38, 25.38
23.893052780628203, 26.38, 25.38
23.90977471669515, 26.38, 25.38
23.92649845679601, 26.38, 25.38
23.943225367863974, 26.38, 25.38
23.95994988679886, 26.38, 25.38
23.976674723625184, 26.38, 25.38
23.99339941342672, 26.38, 25.38
24.010122382640837, 26.38, 25.38
24.026848868529, 26.34, 25.34
24.043573319911957, 26.28, 25.34
24.060298069318137, 26.34, 25.38
24.07695492506027, 26.34, 25.34
24.093681410948435, 26.34, 25.34
24.110405528545378, 26.34, 25.34
24.127130556106568, 26.28, 25.38
24.143855305512748, 26.28, 25.38
24.160579891999564, 26.28, 25.34
24.177304168542225, 26.28, 25.34
24.194027376174926, 26.28, 25.34
24.210752991835275, 26.28, 25.34
24.227477860450744, 26.28, 25.34
24.24420235157013, 26.28, 25.34
24.260927164554595, 26.28, 25.34
24.277651699384055, 26.24, 25.34
24.294375109672547, 26.28, 25.34
24.3111008922259, 26.24, 25.3
24.327825232346854, 26.24, 25.3
24.344549357891083, 26.18, 25.3
24.36127321322759, 26.24, 25.3
24.377999337514243, 26.24, 25.3
24.394722660382588, 26.18, 25.3
24.41144528388977, 26.18, 25.3
24.428172810872397, 26.24, 25.34
24.44489551782608, 26.18, 25.3
24.461619941393533, 26.18, 25.3
24.478344889481864, 26.18, 25.3
24.49506864945094, 26.18, 25.3
24.511793200174967, 26.18, 25.3
24.528517444928486, 26.18, 25.3
24.545242818196616, 26.18, 25.3
24.56196587085724, 26.18, 25.26
24.57869196732839, 26.18, 25.3
24.59541625181834, 26.18, 25.3
24.612075265248617, 26.18, 25.3
24.628799800078074, 26.18, 25.3
24.645523981253305, 26.18, 25.3
24.662248690923054, 26.18, 25.3
24.678973360856375, 26.18, 25.3
24.695698539415996, 26.14, 25.3
24.712422076861063, 26.18, 25.3
24.72914635737737, 26.18, 25.26
24.745871142546335, 26.18, 25.26
24.762595399220785, 26.14, 25.3
24.779319949944814, 26.1, 25.3
24.79604390859604, 26.1, 25.26
24.812768868605296, 26.1, 25.26
24.829494150479636, 26.1, 25.26
24.846219384670256, 26.1, 25.26
24.862943947315216, 26.1, 25.26
24.879668005307515, 26.1, 25.26
24.896393410364787, 26.14, 25.26
24.913116602102914, 26.1, 25.26
24.92984110514323, 26.1, 25.26
24.946565087636312, 26.1, 25.26
24.963291672865548, 26.1, 25.26
24.98001790046692, 26.1, 25.26
24.996743190288544, 26.04, 25.26
25.01346527338028, 26.1, 25.26
25.030191810925803, 26.1, 25.26
25.046916274229684, 26.04, 25.26
25.06364108721415, 26.1, 25.26
25.080367132027945, 26.04, 25.2
25.09709153175354, 26.0, 25.2
25.11381450891495, 26.04, 25.26
25.13054188887278, 26.0, 25.26
25.147199960549674, 26.0, 25.26
25.16392256816228, 26.0, 25.2
25.180650134881336, 26.04, 25.26
25.197374983628592, 26.0, 25.2
25.21410075426102, 26.0, 25.2
25.230825579166414, 26.0, 25.2
25.247549867630006, 26.0, 25.2
25.264274350802104, 26.0, 25.2
25.280999457836153, 26.0, 25.2
25.297723996639252, 25.94, 25.2
25.3144469499588, 26.04, 25.2
25.33117368618647, 26.0, 25.2
25.34789920647939, 26.0, 25.2
25.364623459180198, 26.0, 25.2
25.3813476284345, 26.0, 25.2
25.39807195663452, 25.94, 25.2
25.414798041184742, 25.94, 25.2
25.43152197996775, 25.94, 25.2
25.448247814178465, 25.94, 25.2
25.46497033039729, 25.94, 25.2
25.481697567303975, 25.94, 25.2
25.498421661059062, 25.9, 25.2
25.515145639578503, 25.9, 25.16
25.53187020222346, 25.9, 25.2
25.548595174153647, 25.9, 25.16
25.5653205593427, 25.94, 25.16
25.582043532530466, 25.9, 25.16
25.598768242200215, 25.94, 25.2
25.615494298934937, 25.9, 25.16
25.632219588756563, 25.9, 25.16
25.648878077665966, 25.9, 25.16
25.665603601932524, 25.9, 25.16
25.682328045368195, 25.94, 25.16
25.699052929878235, 25.9, 25.16
25.71577662229538, 25.86, 25.16
25.732502734661104, 25.94, 25.16
25.749227424462635, 25.9, 25.16
25.765952090422314, 25.86, 25.16
25.782676486174264, 25.86, 25.16
25.799401100476583, 25.86, 25.16
25.816125917434693, 25.86, 25.12
25.83285034894943, 25.86, 25.12
25.849575579166412, 25.86, 25.12
25.866300706068674, 25.86, 25.16
25.883025542895, 25.86, 25.16
25.89975000222524, 25.86, 25.12
25.916473654905953, 25.86, 25.12
25.93319878578186, 25.86, 25.16
25.94992333650589, 25.86, 25.12
25.966648491223655, 25.86, 25.12
25.983368853727978, 25.86, 25.12
26.000098598003387, 25.86, 25.12
26.016822640101115, 25.86, 25.12
26.03354751666387, 25.86, 25.12
26.05027104616165, 25.86, 25.12
26.06699514389038, 25.86, 25.12
26.08371969858805, 25.86, 25.12
26.100445127487184, 25.86, 25.12
26.117169562975565, 25.86, 25.12
26.13389471769333, 25.86, 25.12
26.150616761048635, 25.8, 25.12
26.167344232400257, 25.86, 25.12
26.184066502253213, 25.86, 25.12
26.200725011030833, 25.86, 25.12
26.217455061276755, 25.76, 25.08
26.234173134962717, 25.8, 25.12
26.250899080435435, 25.8, 25.12
26.267626988887788, 25.8, 25.12
26.284351607163746, 25.8, 25.08
26.301076579093934, 25.8, 25.12
26.317799647649128, 25.76, 25.08
26.33452353080114, 25.8, 25.12
26.351249118645985, 25.76, 25.12
26.3679731965065, 25.8, 25.12
26.38469983736674, 25.76, 25.08
26.401423931121826, 25.8, 25.12
26.418148930867513, 25.76, 25.08
26.43487366835276, 25.76, 25.08
26.451596995194752, 25.76, 25.08
26.468322372436525, 25.76, 25.08
26.48504745165507, 25.76, 25.08
26.50176728963852, 25.76, 25.08
26.518496199448904, 25.76, 25.08
26.535220789909364, 25.76, 25.08
26.551945658524833, 25.7, 25.04
26.568670507272085, 25.76, 25.08
26.585394179821016, 25.7, 25.08
26.602119247118633, 25.7, 25.04
26.618840944766998, 25.7, 25.08
26.63556605974833, 25.7, 25.08
26.652290920416515, 25.7, 25.08
26.669015288352966, 25.66, 25.08
26.685742437839508, 25.66, 25.08
26.70246429045995, 25.66, 25.04
26.71912499666214, 25.7, 25.04
26.735848744710285, 25.66, 25.04
26.75257339477539, 25.7, 25.08
26.769299745559692, 25.66, 25.04
26.78602400223414, 25.66, 25.04
26.80274879137675, 25.7, 25.08
26.81947414080302, 25.66, 25.04
26.836197340488432, 25.66, 25.04
26.85292323033015, 25.66, 25.04
26.869647685686747, 25.62, 25.04
26.886368453502655, 25.66, 25.04
26.903094951311747, 25.66, 25.04
26.919820141792297, 25.66, 25.04
26.93654359181722, 25.66, 25.04
26.953272012869515, 25.62, 25.04
26.969994076093037, 25.66, 25.04
26.986719739437103, 25.62, 25.0
27.003444091478983, 25.66, 25.04
27.020168284575146, 25.66, 25.04
27.036893673737843, 25.66, 25.04
27.053618335723876, 25.62, 25.04
27.07034270366033, 25.62, 25.0
27.087067627906798, 25.56, 25.0
27.103789921601614, 25.62, 25.04
27.120515231291453, 25.62, 25.0
27.137240091959637, 25.62, 25.0
27.15396511554718, 25.56, 25.0
27.17068918943405, 25.56, 25.0
27.187413044770558, 25.56, 25.0
27.204139212767284, 25.62, 25.0
27.220863858858745, 25.62, 25.0
27.237522951761882, 25.56, 25.0
27.254247482617696, 25.56, 25.0
27.270970861117046, 25.56, 25.0
27.287697863578796, 25.56, 25.0
27.30442006190618, 25.56, 25.0
27.321146400769553, 25.56, 25.0
27.337867685159047, 25.56, 25.0
27.35459541877111, 25.56, 25.0
27.371318697929382, 25.56, 25.0
27.38804500102997, 25.56, 25.0
27.404769853750864, 25.56, 25.0
27.42149422168732, 25.56, 25.0
27.438217500845592, 25.56, 25.0
27.454941288630167, 25.52, 25.0
27.471670214335123, 25.52, 24.96
27.488391228516896, 25.56, 24.96
27.505113939444225, 25.52, 25.0
27.521838974952697, 25.56, 25.0
27.538565146923066, 25.52, 25.0
27.555289375782014, 25.46, 24.96
27.572014343738555, 25.46, 24.96
27.588737750053404, 25.52, 25.0
27.60546371539434, 25.46, 25.0
27.622187022368113, 25.52, 24.96
27.63891157309214, 25.46, 25.0
27.655636072158813, 25.46, 24.96
27.67236086924871, 25.52, 24.96
27.689085165659588, 25.46, 25.0
27.70580937465032, 25.46, 24.96
27.7225337266922, 25.46, 24.96
27.739258762200674, 25.46, 24.96
27.755917191505432, 25.46, 24.96
27.772642238934836, 25.46, 24.96
27.78936518828074, 25.46, 24.96
27.806091550985972, 25.46, 24.96
27.82281517982483, 25.46, 24.96
27.839540791511535, 25.46, 24.96
27.856265513102212, 25.46, 24.96
27.872990771134695, 25.42, 24.92
27.889712584018707, 25.46, 24.96
27.906437794367474, 25.42, 24.92
27.923164916038512, 25.42, 24.96
27.939887634913127, 25.46, 24.96
27.956610838572185, 25.46, 24.96
27.973337320486703, 25.42, 24.96
27.990062061945597, 25.38, 24.96
28.00678679148356, 25.42, 24.92
28.02351080576579, 25.38, 24.92
28.040235312779746, 25.42, 24.92
28.056959597269692, 25.38, 24.92
28.073684370517732, 25.38, 24.92
28.09040918747584, 25.38, 24.96
28.10713304678599, 25.38, 24.92
28.123857831954957, 25.38, 24.92
28.140582557519277, 25.38, 24.92
28.15730572938919, 25.38, 24.92
28.17403223911921, 25.38, 24.92
28.190755172570547, 25.38, 24.92
28.207480855782826, 25.38, 24.92
28.224204099178316, 25.38, 24.92
28.240930159886677, 25.38, 24.92
28.257653681437173, 25.38, 24.92
28.274379829565685, 25.38, 24.92
28.291037253538768, 25.38, 24.92
28.307762710253396, 25.32, 24.92
28.324485039711, 25.32, 24.92
28.341210031509398, 25.38, 24.92
28.357935722668966, 25.32, 24.92
28.374660126368205, 25.32, 24.88
28.391384836037954, 25.32, 24.92
28.40810657342275, 25.32, 24.88
28.424834136168162, 25.32, 24.92
28.441557908058165, 25.32, 24.88
28.45828242699305, 25.32, 24.88
28.475007088979087, 25.32, 24.88
28.491731484731037, 25.32, 24.92
28.508456087112428, 25.32, 24.88
28.525181285540263, 25.32, 24.88
28.541905518372854, 25.32, 24.88
28.558630124727884, 25.32, 24.88
28.575353590647378, 25.32, 24.88
28.592078212896983, 25.32, 24.88
28.608803061644235, 25.32, 24.88
28.625527795155843, 25.32, 24.88
28.64225251674652, 25.32, 24.92
28.658976356188457, 25.32, 24.88
28.67570153474808, 25.32, 24.88
28.69242576758067, 25.32, 24.88
28.709149158000947, 25.32, 24.88
28.725873517990113, 25.32, 24.88
28.742597754796346, 25.32, 24.88
28.759320167700448, 25.32, 24.88
28.776047162214915, 25.32, 24.88
28.7927717089653, 25.32, 24.88
28.80949649810791, 25.32, 24.88
28.82622107664744, 25.32, 24.88
28.84287798802058, 25.28, 24.88
28.85959857304891, 25.32, 24.88
28.876328150431316, 25.28, 24.88
28.893046438694, 25.22, 24.84
28.909770158926644, 25.22, 24.84
28.926501842339835, 25.22, 24.84
28.94322676261266, 25.32, 24.88
28.95995105902354, 25.22, 24.84
28.976675856113435, 25.28, 24.84
28.993399035930633, 25.22, 24.84
29.010123391946156, 25.28, 24.84
29.02684753338496, 25.22, 24.84
29.0435732960701, 25.22, 24.88
29.060299122333525, 25.22, 24.84
29.077021900812785, 25.22, 24.84
29.093746320406595, 25.22, 24.84
29.110470986366273, 25.22, 24.84
29.127195155620576, 25.22, 24.84
29.143919432163237, 25.22, 24.84
29.160643259684246, 25.22, 24.84
29.17736945152283, 25.18, 24.8
29.194092778364816, 25.22, 24.84
29.21081602970759, 25.22, 24.8
29.227541478474937, 25.18, 24.8
29.24426621198654, 25.18, 24.8
29.260990671316783, 25.18, 24.8
29.27771585782369, 25.22, 24.84
29.29443848133087, 25.14, 24.8
29.31116445859273, 25.18, 24.84
29.32788852453232, 25.22, 24.8
29.3446142911911, 25.18, 24.8
29.361338154474893, 25.18, 24.8
29.37799766858419, 25.18, 24.8
29.394722008705138, 25.18, 24.84
29.411445701122283, 25.18, 24.8
29.42816963593165, 25.18, 24.8
29.444894754886626, 25.18, 24.8
29.46161941687266, 25.18, 24.8
29.478342974185942, 25.22, 24.84
29.495069527626036, 25.18, 24.8
29.511793931325276, 25.18, 24.8
29.52851675748825, 25.18, 24.8
29.545242591698965, 25.18, 24.8
29.561967611312866, 25.14, 24.8
29.57869053284327, 25.14, 24.84
29.59541689157486, 25.14, 24.8
29.61213896671931, 25.18, 24.8
29.628864840666452, 25.08, 24.8
29.64559001525243, 25.14, 24.8
29.6623121937116, 25.18, 24.8
29.67903887828191, 25.14, 24.8
29.69576005935669, 25.14, 24.8
29.712487506866456, 25.08, 24.8
29.729212999343872, 25.14, 24.8
29.745935968557994, 25.14, 24.8
29.762658655643463, 25.18, 24.74
29.779385403792062, 25.14, 24.8
29.79610783259074, 25.08, 24.8
29.81283234357834, 25.14, 24.8
29.829557824134827, 25.14, 24.8
29.846282633145652, 25.14, 24.8
29.86300545533498, 25.14, 24.8
29.879730788866677, 25.14, 24.8
29.896390720208487, 25.14, 24.74
29.913113367557525, 25.08, 24.74
29.929839781920116, 25.14, 24.74
29.946564503510793, 25.08, 24.74
29.96328870455424, 25.08, 24.8
29.980011673768363, 25.08, 24.74
29.996736176808675, 25.08, 24.74
30.01346154610316, 25.08, 24.74
30.030185441176098, 25.08, 24.74
30.046908469994865, 25.08, 24.74
30.063635444641115, 25.08, 24.74
30.08035872777303, 25.08, 24.74
30.09708377122879, 25.08, 24.74
30.11380577882131, 25.08, 24.74
30.130530456701916, 25.08, 24.74
30.147256978352864, 25.08, 24.74
30.16397674481074, 25.08, 24.74
30.180703659852345, 25.08, 24.74
30.197431568304697, 25.08, 24.74
30.214155320326487, 25.08, 24.74
30.230877395470937, 25.04, 24.74
30.247600038846333, 25.04, 24.74
30.26432829697927, 25.04, 24.74
30.281052422523498, 25.04, 24.74
30.297775761286417, 25.04, 24.74
30.31449557940165, 25.08, 24.74
30.331225872039795, 25.04, 24.74
30.347949679692586, 25.04, 24.74
30.364675454298656, 24.98, 24.74
30.381398952007295, 25.04, 24.74
30.398123828570046, 25.04, 24.74
30.414848132928213, 25.04, 24.74
30.431506478786467, 25.04, 24.74
30.4482328414917, 25.04, 24.7
30.46495632727941, 24.98, 24.7
30.481680560112, 24.98, 24.74
30.498404733339946, 24.98, 24.7
30.515129816532134, 24.98, 24.7
30.531854224205016, 25.04, 24.74
30.54857856829961, 24.98, 24.7
30.565302459398904, 25.04, 24.74
30.58202708562215, 24.98, 24.7
30.598751537005107, 24.98, 24.7
30.61547649304072, 24.98, 24.7
30.632201127211253, 24.98, 24.7
30.648925785223643, 24.98, 24.7
30.665649938583375, 24.98, 24.74
30.682374290625255, 24.98, 24.74
30.699098896980285, 24.98, 24.7
30.71582321325938, 24.98, 24.7
30.73254756530126, 25.04, 24.74
30.74927232662837, 24.98, 24.7
30.76599628130595, 24.98, 24.7
30.78271853129069, 24.98, 24.7
30.79944671789805, 24.98, 24.7
30.816168530782065, 24.98, 24.7
30.83289165496826, 24.98, 24.7
30.84961806933085, 24.98, 24.7
30.866342270374297, 24.98, 24.7
30.883063741525014, 24.98, 24.7
30.899791606267293, 24.98, 24.7
30.916515692075095, 24.98, 24.7
30.933240008354186, 24.98, 24.7
30.949894364674886, 24.98, 24.7
30.966624037424722, 24.98, 24.7
30.983349549770356, 24.94, 24.66
31.00007298787435, 24.98, 24.7
31.016795988877615, 24.98, 24.7
31.03352200984955, 24.98, 24.7
31.050246691703798, 24.94, 24.7
31.066970535119374, 24.94, 24.7
31.08369597196579, 24.94, 24.7
31.100419278939565, 24.9, 24.7
31.11714351971944, 24.94, 24.7
31.13386855920156, 24.94, 24.7
31.150591870148975, 24.9, 24.66
31.167314835389455, 24.94, 24.66
31.18403592904409, 24.9, 24.66
31.200764191150665, 24.94, 24.66
31.217484291394552, 24.9, 24.66
31.234214878082277, 24.9, 24.66
31.250938125451405, 24.9, 24.66
31.26766053835551, 24.94, 24.66
31.284386161963145, 24.9, 24.7
31.30111291805903, 24.9, 24.66
31.31783520380656, 24.9, 24.66
31.33455934524536, 24.9, 24.66
31.35128506819407, 24.9, 24.66
31.368009368578594, 24.9, 24.66
31.384734495480856, 24.9, 24.66
31.401458672682445, 24.9, 24.66
31.41818211078644, 24.9, 24.66
31.434907786051433, 24.9, 24.66
31.451632579167683, 24.9, 24.66
31.46829133828481, 24.9, 24.62
31.485015273094177, 24.9, 24.66
31.501740396022797, 24.9, 24.66
31.518465212980907, 24.9, 24.66
31.535189628601074, 24.9, 24.66
31.551913996537525, 24.9, 24.66
31.568637923399606, 24.9, 24.66
31.58536289135615, 24.9, 24.66
31.60208641688029, 24.9, 24.66
31.618812878926594, 24.9, 24.62
31.6355339050293, 24.9, 24.66
31.65225835641225, 24.9, 24.66
31.668984866142274, 24.84, 24.66
31.68570721546809, 24.9, 24.62
31.702433717250823, 24.9, 24.66
31.719157656033833, 24.9, 24.66
31.73588085969289, 24.9, 24.66
31.752605644861855, 24.84, 24.62
31.769331018129986, 24.9, 24.62
31.786054797967275, 24.9, 24.62
31.80277702411016, 24.9, 24.62
31.81950320402781, 24.9, 24.62
31.83622989257177, 24.9, 24.62
31.852952110767365, 24.9, 24.62
31.869677126407623, 24.84, 24.62
31.88640038172404, 24.9, 24.66
31.903125890096028, 24.84, 24.62
31.919850742816926, 24.84, 24.62
31.93657428820928, 24.84, 24.62
31.953300646940868, 24.84, 24.62
31.97002462943395, 24.84, 24.62
31.986683177948, 24.84, 24.62
32.003407601515455, 24.9, 24.62
32.0201318860054, 24.84, 24.62
32.03685601154963, 24.84, 24.62
32.053581194082895, 24.84, 24.62
32.07030498186747, 24.9, 24.66
32.08703092336655, 24.84, 24.62
32.10375402768453, 24.84, 24.62
32.120478343963626, 24.84, 24.62
32.137202858924866, 24.84, 24.62
32.15392725070318, 24.84, 24.62
32.170651157697044, 24.84, 24.62
32.18737632830938, 24.84, 24.62
32.204100759824115, 24.84, 24.62
32.22082558075587, 24.8, 24.62
32.23755021890005, 24.8, 24.58
32.25427217880885, 24.8, 24.62
32.270998215675355, 24.8, 24.62
32.2877215107282, 24.8, 24.62
32.30444736878077, 24.8, 24.62
32.321169284979504, 24.84, 24.58
32.337896541754404, 24.74, 24.62
32.354621505737306, 24.8, 24.58
32.371345516045885, 24.8, 24.58
32.388068838914236, 24.8, 24.62
32.40479326248169, 24.74, 24.58
32.42151797215144, 24.74, 24.62
32.4382410009702, 24.74, 24.62
32.45496737162272, 24.74, 24.58
32.47168983618418, 24.8, 24.62
32.488415579001106, 24.8, 24.62
32.50514028867086, 24.74, 24.62
32.521799524625145, 24.74, 24.58
32.53852375348409, 24.74, 24.58
32.55524713198344, 24.8, 24.58
32.57197008132935, 24.74, 24.62
32.58869734605153, 24.74, 24.58
32.60542134841283, 24.74, 24.58
32.622146264712015, 24.74, 24.58
32.638871097564696, 24.74, 24.58
32.655593526363376, 24.74, 24.58
32.67231844266256, 24.74, 24.58
32.68904389540354, 24.74, 24.62
32.70576769510905, 24.74, 24.58
32.72249264319738, 24.74, 24.58
32.73921665350596, 24.74, 24.58
32.7559423883756, 24.74, 24.58
32.772664221127826, 24.8, 24.58
32.789390949408215, 24.74, 24.58
32.80611438751221, 24.74, 24.58
32.822839963436124, 24.74, 24.58
32.839563779036204, 24.74, 24.58
32.856288055578865, 24.74, 24.58
32.873012856642404, 24.74, 24.58
32.88973728020986, 24.74, 24.58
32.90645982424418, 24.74, 24.58
32.92318447430929, 24.74, 24.58
32.93990869919459, 24.74, 24.58
32.956633810202284, 24.74, 24.52
32.97335750261943, 24.74, 24.52
32.99008106787999, 24.74, 24.52
33.00680754582087, 24.74, 24.58
33.02353200515111, 24.74, 24.58
33.04025526046753, 24.74, 24.58
33.05698067744573, 24.74, 24.58
33.073639424641925, 24.74, 24.58
33.09036489725113, 24.74, 24.58
33.10708830753962, 24.74, 24.52
33.12381366093953, 24.74, 24.58
33.140537067254385, 24.74, 24.52
33.15726194381714, 24.7, 24.58
33.173986721038816, 24.74, 24.58
33.190708931287126, 24.7, 24.52
33.20743372440338, 24.74, 24.58
33.22415944735209, 24.74, 24.58
33.24088403383891, 24.7, 24.52
33.257608608404794, 24.74, 24.58
33.274333103497824, 24.7, 24.58
33.29105741977692, 24.66, 24.52
33.30778206984202, 24.7, 24.58
33.32450517813365, 24.66, 24.58
33.34123085737228, 24.66, 24.52
33.357955869038896, 24.66, 24.58
33.37468089262644, 24.66, 24.52
33.39140627384186, 24.7, 24.58
33.408131301403046, 24.74, 24.58
33.424856154123944, 24.7, 24.52
33.441582981745405, 24.7, 24.52
33.45830836693446, 24.66, 24.52
33.475032313664755, 24.7, 24.52
33.49175720612208, 24.66, 24.52
33.508482877413435, 24.74, 24.52
33.52520861625671, 24.66, 24.52
33.54193429549535, 24.6, 24.52
33.55865891377131, 24.66, 24.52
33.575385161240895, 24.66, 24.52
33.59211062987645, 24.66, 24.52
33.608770394325255, 24.66, 24.52
33.62549652258555, 24.66, 24.52
33.64222037792206, 24.66, 24.52
33.65894604921341, 24.7, 24.52
33.675671895345054, 24.66, 24.52
33.69239734808604, 24.66, 24.52
33.709122463067374, 24.66, 24.52
33.725847987333935, 24.66, 24.52
33.74257048368454, 24.6, 24.48
33.7592984477679, 24.66, 24.52
33.77602345943451, 24.66, 24.52
33.792748641967776, 24.66, 24.52
33.809474070866905, 24.66, 24.52
33.82619930505753, 24.66, 24.52
33.84292436440786, 24.66, 24.52
33.85965015888214, 24.6, 24.52
33.87637333869934, 24.66, 24.52
33.89310097297032, 24.66, 24.48
33.909824907779694, 24.66, 24.52
33.92654767036438, 24.6, 24.52
33.94327407280604, 24.6, 24.48
33.960000864664714, 24.6, 24.48
33.97672666708628, 24.66, 24.52
33.993452441692355, 24.6, 24.48
34.010174671808876, 24.66, 24.52
34.02690167824427, 24.66, 24.48
34.04362698396047, 24.6, 24.52
34.06035217841466, 24.6, 24.48
34.07707677682241, 24.6, 24.48
34.093802229563394, 24.66, 24.52
34.11052754322688, 24.66, 24.52
34.12725313504537, 24.6, 24.48
34.14391267697017, 24.66, 24.52
34.160638213157654, 24.6, 24.48
34.177364838123324, 24.6, 24.48
34.194088792800905, 24.6, 24.48
34.210812310377754, 24.6, 24.48
34.2275372783343, 24.6, 24.48
34.24426472187042, 24.6, 24.48
34.26099064747493, 24.6, 24.48
34.27771434783936, 24.6, 24.48
34.29443933169047, 24.6, 24.52
34.31116593678792, 24.6, 24.48
34.32789140144984, 24.6, 24.48
34.34461547136307, 24.6, 24.48
34.361340550581616, 24.66, 24.48
34.37806609471639, 24.6, 24.48
34.394791642824806, 24.6, 24.48
34.411515208085376, 24.6, 24.48
34.428239738941194, 24.6, 24.48
34.444966502984364, 24.6, 24.48
34.46169161001841, 24.6, 24.48
34.478414563337964, 24.6, 24.48
34.4951402982076, 24.56, 24.44
34.5118679245313, 24.6, 24.48
34.528591537475585, 24.6, 24.48
34.54531664848328, 24.6, 24.48
34.562041997909546, 24.6, 24.48
34.57876677115758, 24.6, 24.48
34.595492549737294, 24.56, 24.44
34.61221752961477, 24.56, 24.48
34.62894268433253, 24.56, 24.48
34.64566516081492, 24.56, 24.44
34.66239320039749, 24.6, 24.48
34.67905293703079, 24.6, 24.48
34.695777928829195, 24.6, 24.48
34.71250346501668, 24.56, 24.44
34.7292294383049, 24.56, 24.48
34.745953901608786, 24.6, 24.44
34.762678583463035, 24.56, 24.44
34.77940452496211, 24.56, 24.48
34.79612900018692, 24.56, 24.44
34.812852358818056, 24.56, 24.44
34.82957943677902, 24.56, 24.44
34.84630438486735, 24.5, 24.44
34.863030568758646, 24.6, 24.48
34.87975473403931, 24.56, 24.44
34.89647864103317, 24.6, 24.48
34.91320497989655, 24.56, 24.48
34.92993038495381, 24.56, 24.44
34.94665476083755, 24.5, 24.44
34.96338002681732, 24.5, 24.44
34.980103953679404, 24.5, 24.44
34.99683124621709, 24.5, 24.44
35.013555820782976, 24.56, 24.44
35.03028058211009, 24.56, 24.44
35.04700558980306, 24.5, 24.44
35.063729484876, 24.5, 24.44
35.08045566876729, 24.5, 24.44
35.09718020359675, 24.5, 24.44
35.113904885451, 24.5, 24.44
35.13063099384308, 24.5, 24.44
35.147356152534485, 24.5, 24.44
35.164080154895785, 24.5, 24.44
35.180807801087695, 24.5, 24.44
35.19753139416377, 24.5, 24.44
35.21419068177541, 24.5, 24.44
35.23091553846995, 24.5, 24.44
35.247639723618825, 24.5, 24.44
35.26436656713486, 24.5, 24.44
35.28109122912089, 24.5, 24.4
35.2978161295255, 24.5, 24.44
35.31454111735026, 24.5, 24.4
35.33126579523086, 24.5, 24.44
35.34798860549927, 24.56, 24.44
35.364716200033826, 24.5, 24.44
35.381439379851024, 24.5, 24.44
35.39816672007243, 24.5, 24.44
35.41489168008169, 24.5, 24.44
35.431614232063296, 24.5, 24.44
35.44833867549896, 24.5, 24.44
35.465064513683316, 24.5, 24.44
35.48179029226303, 24.5, 24.4
35.498515927791594, 24.5, 24.44
35.51524024804433, 24.5, 24.44
35.531966590881346, 24.5, 24.44
35.548690903186795, 24.5, 24.44
35.56541658639908, 24.5, 24.4
35.5821408867836, 24.5, 24.4
35.59886482556661, 24.5, 24.44
35.61558976968129, 24.5, 24.4
35.632315786679584, 24.5, 24.4
35.64904069503148, 24.5, 24.4
35.66576598087946, 24.5, 24.4
35.68249070644379, 24.5, 24.4
35.69921582142512, 24.5, 24.4
35.71594109535217, 24.5, 24.4
35.73260076443354, 24.5, 24.4
35.74932605822881, 24.5, 24.4
35.76605114539464, 24.5, 24.4
35.78277578353882, 24.5, 24.44
35.79950191577276, 24.5, 24.4
35.8162264585495, 24.5, 24.4
35.832952185471854, 24.5, 24.4
35.84967588980992, 24.5, 24.4
35.866400146484374, 24.5, 24.4
35.88312555551529, 24.5, 24.4
35.89985014200211, 24.46, 24.4
35.91657582521439, 24.5, 24.4
35.93330071369807, 24.5, 24.4
35.95002601941427, 24.5, 24.4
35.966750701268516, 24.5, 24.4
35.98347542683283, 24.5, 24.4
36.00020001331965, 24.5, 24.4
36.01692564090093, 24.46, 24.4
36.03365056117376, 24.5, 24.4
36.05037490526835, 24.5, 24.4
36.06710024674734, 24.5, 24.4
36.08382594982783, 24.46, 24.4
36.100550766785936, 24.5, 24.4
36.11727306842804, 24.5, 24.4
36.133996017773946, 24.5, 24.4
36.150721561908725, 24.5, 24.4
36.16745069026947, 24.5, 24.4
36.18417084614436, 24.5, 24.4
36.20089778105418, 24.5, 24.4
36.217623472213745, 24.46, 24.4
36.23434555530548, 24.5, 24.36
36.25100713968277, 24.5, 24.36
36.26773391962051, 24.5, 24.36
36.284458390871684, 24.5, 24.4
36.30118420124054, 24.5, 24.36
36.31790249745051, 24.5, 24.4
36.334634737173715, 24.46, 24.36
36.35135869582494, 24.5, 24.4
36.368083830674486, 24.46, 24.36
36.3848086198171, 24.5, 24.36
36.40153205394745, 24.5, 24.36
36.418258841832476, 24.5, 24.4
36.43498508532842, 24.46, 24.4
36.45170874993006, 24.5, 24.36
36.46843394438426, 24.46, 24.36
36.48515872557958, 24.46, 24.36
36.5018826285998, 24.46, 24.36
36.518608895937604, 24.46, 24.36
36.5353324453036, 24.46, 24.36
36.552057246367134, 24.46, 24.36
36.56878279050191, 24.46, 24.36
36.58551018238067, 24.46, 24.36
36.60223098993301, 24.46, 24.36
36.61895640293757, 24.46, 24.36
36.63567976951599, 24.46, 24.36
36.65240850448608, 24.46, 24.36
36.66913024981817, 24.46, 24.36
36.685856763521834, 24.46, 24.36
36.70257728099823, 24.46, 24.36
36.71930552721024, 24.46, 24.36
36.736032517751056, 24.46, 24.36
36.75275652011236, 24.46, 24.36
36.76948077678681, 24.46, 24.36
36.78614159822464, 24.46, 24.36
36.8028666973114, 24.46, 24.36
36.81959084272385, 24.46, 24.36
36.8363098859787, 24.46, 24.36
36.94391322135925, 24.46, 24.36
36.94683760404587, 24.46, 24.36
36.9488029718399, 24.46, 24.36
36.95066750446956, 24.46, 24.36
36.95252571503321, 24.46, 24.36
36.954322226842244, 24.46, 24.36
36.955855651696524, 24.46, 24.36
36.97011094888051, 24.46, 24.36
36.98683542013168, 24.5, 24.36
37.00356589953105, 24.46, 24.36
37.02028930981954, 24.46, 24.36
37.03700961669286, 24.46, 24.36
37.05374048948288, 24.46, 24.36
37.07046343485514, 24.36, 24.32
37.094075524806975, 24.46, 24.36
